,*Thu Aug 31 11:39:07 2023_5.7_5,
Wavenumbers [1/cm],Absorbance,
4000.122,0.02987138,
3999.640,0.02985104,
3999.158,0.02986612,
3998.676,0.02990863,
3998.194,0.029961,
3997.712,0.03000438,
3997.230,0.03002567,
3996.747,0.03002362,
3996.265,0.0300075,
3995.783,0.02999314,
3995.301,0.02999395,
3994.819,0.03001595,
3994.337,0.03005723,
3993.855,0.03011106,
3993.373,0.03017163,
3992.891,0.03023949,
3992.408,0.03032089,
3991.926,0.03042353,
3991.444,0.03054879,
3990.962,0.03068553,
3990.480,0.0308087,
3989.998,0.03088414,
3989.516,0.03088339,
3989.034,0.03079112,
3988.552,0.03061427,
3988.069,0.03037874,
3987.587,0.03012144,
3987.105,0.02987776,
3986.623,0.02966995,
3986.141,0.02950652,
3985.659,0.02938181,
3985.177,0.02928436,
3984.695,0.029203,
3984.212,0.029134,
3983.730,0.02908086,
3983.248,0.02905253,
3982.766,0.0290581,
3982.284,0.02910256,
3981.802,0.0291854,
3981.320,0.02930184,
3980.838,0.02944459,
3980.356,0.02960477,
3979.873,0.02977237,
3979.391,0.02993403,
3978.909,0.03007073,
3978.427,0.03016147,
3977.945,0.03018681,
3977.463,0.03013518,
3976.981,0.0300105,
3976.499,0.02983337,
3976.016,0.02963959,
3975.534,0.02946695,
3975.052,0.0293484,
3974.570,0.02929939,
3974.088,0.02931529,
3973.606,0.02937515,
3973.124,0.02945237,
3972.642,0.02952732,
3972.160,0.02959214,
3971.677,0.02965179,
3971.195,0.02971854,
3970.713,0.02980413,
3970.231,0.02991276,
3969.749,0.03003902,
3969.267,0.03017063,
3968.785,0.03029417,
3968.303,0.03040011,
3967.820,0.03048545,
3967.338,0.03055244,
3966.856,0.0306045,
3966.374,0.03064214,
3965.892,0.03066141,
3965.410,0.0306547,
3964.928,0.03061405,
3964.446,0.03053587,
3963.964,0.03042327,
3963.481,0.03028807,
3962.999,0.0301471,
3962.517,0.0300201,
3962.035,0.02992389,
3961.553,0.02986751,
3961.071,0.0298504,
3960.589,0.02986199,
3960.107,0.02988672,
3959.625,0.02990727,
3959.142,0.02990954,
3958.660,0.02988724,
3958.178,0.02984227,
3957.696,0.02978626,
3957.214,0.02973665,
3956.732,0.02971443,
3956.250,0.02973754,
3955.768,0.02981462,
3955.285,0.02994287,
3954.803,0.03010704,
3954.321,0.03028419,
3953.839,0.03044696,
3953.357,0.03057004,
3952.875,0.03063549,
3952.393,0.03063163,
3951.911,0.0305564,
3951.429,0.03041496,
3950.946,0.03022081,
3950.464,0.02999332,
3949.982,0.02975687,
3949.500,0.02954009,
3949.018,0.02936954,
3948.536,0.02926401,
3948.054,0.02922961,
3947.572,0.02925667,
3947.089,0.0293236,
3946.607,0.0294053,
3946.125,0.02948288,
3945.643,0.02954701,
3945.161,0.02959704,
3944.679,0.02963707,
3944.197,0.0296714,
3943.715,0.0297011,
3943.233,0.02972363,
3942.750,0.02973563,
3942.268,0.02973745,
3941.786,0.02973691,
3941.304,0.02974864,
3940.822,0.02978757,
3940.340,0.02986035,
3939.858,0.02996215,
3939.376,0.0300764,
3938.893,0.03018037,
3938.411,0.03025025,
3937.929,0.03027093,
3937.447,0.03024079,
3936.965,0.03017289,
3936.483,0.03009082,
3936.001,0.03001956,
3935.519,0.02997992,
3935.037,0.02998152,
3934.554,0.03002379,
3934.072,0.03009778,
3933.590,0.03018908,
3933.108,0.03027984,
3932.626,0.03034928,
3932.144,0.03037831,
3931.662,0.03035122,
3931.180,0.03026101,
3930.698,0.0301128,
3930.215,0.02992365,
3929.733,0.02971887,
3929.251,0.02952323,
3928.769,0.02935756,
3928.287,0.02923277,
3927.805,0.02915072,
3927.323,0.02910869,
3926.841,0.02910434,
3926.358,0.02914009,
3925.876,0.02922431,
3925.394,0.02936652,
3924.912,0.0295685,
3924.430,0.02981262,
3923.948,0.0300605,
3923.466,0.03026647,
3922.984,0.03039483,
3922.502,0.03043769,
3922.019,0.0304128,
3921.537,0.03035572,
3921.055,0.03030383,
3920.573,0.03028587,
3920.091,0.03031479,
3919.609,0.03038335,
3919.127,0.03046801,
3918.645,0.03053576,
3918.162,0.03055971,
3917.680,0.03052613,
3917.198,0.03043874,
3916.716,0.03031486,
3916.234,0.03017872,
3915.752,0.03005261,
3915.270,0.02995204,
3914.788,0.02988643,
3914.306,0.02986119,
3913.823,0.02987732,
3913.341,0.02993072,
3912.859,0.03000738,
3912.377,0.03008385,
3911.895,0.03012625,
3911.413,0.03010005,
3910.931,0.02998323,
3910.449,0.02977403,
3909.966,0.0294967,
3909.484,0.02919093,
3909.002,0.02890319,
3908.520,0.02866934,
3908.038,0.02850471,
3907.556,0.02840592,
3907.074,0.02835575,
3906.592,0.02833511,
3906.110,0.02833275,
3905.627,0.0283537,
3905.145,0.02841702,
3904.663,0.02854333,
3904.181,0.02873189,
3903.699,0.02894444,
3903.217,0.02910731,
3902.735,0.02915382,
3902.253,0.02906115,
3901.771,0.02886952,
3901.288,0.02866277,
3900.806,0.02854206,
3900.324,0.02859131,
3899.842,0.02884161,
3899.360,0.02926164,
3898.878,0.02976146,
3898.396,0.03023409,
3897.914,0.03058981,
3897.431,0.03078669,
3896.949,0.03083175,
3896.467,0.03075918,
3895.985,0.03061285,
3895.503,0.03043086,
3895.021,0.03024524,
3894.539,0.03007959,
3894.057,0.02994892,
3893.575,0.02986388,
3893.092,0.02982794,
3892.610,0.02983701,
3892.128,0.02987925,
3891.646,0.02993928,
3891.164,0.03000568,
3890.682,0.03007725,
3890.200,0.03016329,
3889.718,0.03027411,
3889.235,0.03041109,
3888.753,0.03056269,
3888.271,0.03070632,
3887.789,0.03081266,
3887.307,0.03085336,
3886.825,0.03080683,
3886.343,0.03066866,
3885.861,0.03046196,
3885.379,0.03024147,
3884.896,0.03007388,
3884.414,0.03000072,
3883.932,0.03001859,
3883.450,0.03009047,
3882.968,0.03017552,
3882.486,0.03024354,
3882.004,0.03028189,
3881.522,0.03029144,
3881.039,0.03028211,
3880.557,0.03026433,
3880.075,0.03024367,
3879.593,0.03022002,
3879.111,0.03019514,
3878.629,0.03017736,
3878.147,0.0301808,
3877.665,0.03021724,
3877.183,0.03029081,
3876.700,0.0303961,
3876.218,0.03051903,
3875.736,0.03063959,
3875.254,0.0307358,
3874.772,0.03079192,
3874.290,0.03080623,
3873.808,0.03079677,
3873.326,0.03079567,
3872.844,0.03083224,
3872.361,0.03092081,
3871.879,0.03105591,
3871.397,0.03121807,
3870.915,0.03138091,
3870.433,0.03151704,
3869.951,0.03159885,
3869.469,0.03160588,
3868.987,0.0315352,
3868.504,0.03140202,
3868.022,0.03122684,
3867.540,0.03102079,
3867.058,0.03078324,
3866.576,0.03051153,
3866.094,0.03020933,
3865.612,0.02990303,
3865.130,0.02964349,
3864.648,0.02949279,
3864.165,0.02950133,
3863.683,0.02966933,
3863.201,0.02994274,
3862.719,0.03023049,
3862.237,0.03044648,
3861.755,0.03053711,
3861.273,0.03048208,
3860.791,0.03029372,
3860.308,0.03000376,
3859.826,0.02965296,
3859.344,0.02928052,
3858.862,0.02892056,
3858.380,0.02860643,
3857.898,0.02836648,
3857.416,0.02822512,
3856.934,0.02819898,
3856.452,0.02829138,
3855.969,0.02848861,
3855.487,0.02875942,
3855.005,0.0290648,
3854.523,0.02935768,
3854.041,0.02958649,
3853.559,0.02969958,
3853.077,0.02966592,
3852.595,0.02951424,
3852.112,0.02933683,
3851.630,0.0292331,
3851.148,0.02924424,
3850.666,0.02935618,
3850.184,0.02953477,
3849.702,0.02974116,
3849.220,0.02994173,
3848.738,0.03010684,
3848.256,0.03021497,
3847.773,0.03025724,
3847.291,0.03023461,
3846.809,0.03015938,
3846.327,0.03004947,
3845.845,0.02992648,
3845.363,0.0298099,
3844.881,0.02971289,
3844.399,0.02964009,
3843.917,0.02958447,
3843.434,0.02952996,
3842.952,0.029455,
3842.470,0.02934351,
3841.988,0.02919129,
3841.506,0.02900915,
3841.024,0.02882154,
3840.542,0.02866683,
3840.060,0.02859691,
3839.577,0.02866821,
3839.095,0.02892961,
3838.613,0.02939506,
3838.131,0.03002376,
3837.649,0.03071906,
3837.167,0.03136208,
3836.685,0.03185816,
3836.203,0.03215566,
3835.721,0.03225032,
3835.238,0.0321736,
3834.756,0.03197627,
3834.274,0.0317153,
3833.792,0.03143841,
3833.310,0.03118603,
3832.828,0.03098312,
3832.346,0.03083872,
3831.864,0.03074652,
3831.381,0.03068512,
3830.899,0.03062551,
3830.417,0.0305375,
3829.935,0.03040257,
3829.453,0.03021688,
3828.971,0.02998972,
3828.489,0.02973978,
3828.007,0.02949203,
3827.525,0.02927989,
3827.042,0.02913524,
3826.560,0.02907991,
3826.078,0.02911234,
3825.596,0.02920231,
3825.114,0.02929918,
3824.632,0.02934802,
3824.150,0.02930676,
3823.668,0.02914637,
3823.185,0.02885153,
3822.703,0.02842003,
3822.221,0.0278804,
3821.739,0.02732016,
3821.257,0.0268942,
3820.775,0.02679254,
3820.293,0.02710387,
3819.811,0.02773054,
3819.329,0.02845825,
3818.846,0.02910717,
3818.364,0.02959381,
3817.882,0.02989654,
3817.400,0.03002994,
3816.918,0.03002704,
3816.436,0.02994087,
3815.954,0.02983913,
3815.472,0.02978127,
3814.990,0.02979308,
3814.507,0.02985343,
3814.025,0.02991963,
3813.543,0.02995462,
3813.061,0.02994327,
3812.579,0.02989021,
3812.097,0.02981647,
3811.615,0.02975098,
3811.133,0.02972378,
3810.650,0.02975832,
3810.168,0.02986347,
3809.686,0.0300315,
3809.204,0.03024072,
3808.722,0.03046237,
3808.240,0.03066301,
3807.758,0.03080747,
3807.276,0.03086666,
3806.794,0.03082726,
3806.311,0.03070533,
3805.829,0.03054252,
3805.347,0.03038898,
3804.865,0.03027694,
3804.383,0.03021302,
3803.901,0.0301853,
3803.419,0.03017129,
3802.937,0.03014582,
3802.454,0.03008467,
3801.972,0.02997418,
3801.490,0.02982207,
3801.008,0.02966197,
3800.526,0.02953639,
3800.044,0.02946708,
3799.562,0.02944201,
3799.080,0.02942865,
3798.598,0.02939101,
3798.115,0.02929882,
3797.633,0.02913911,
3797.151,0.02892269,
3796.669,0.02869282,
3796.187,0.02851344,
3795.705,0.02844771,
3795.223,0.02852999,
3794.741,0.02875192,
3794.258,0.02907493,
3793.776,0.0294496,
3793.294,0.02983426,
3792.812,0.03019699,
3792.330,0.03051561,
3791.848,0.03077846,
3791.366,0.03098223,
3790.884,0.03113163,
3790.402,0.03123846,
3789.919,0.03131951,
3789.437,0.03139197,
3788.955,0.03146794,
3788.473,0.03155226,
3787.991,0.0316392,
3787.509,0.03171623,
3787.027,0.03176482,
3786.545,0.03176769,
3786.063,0.03171406,
3785.580,0.03160381,
3785.098,0.03145039,
3784.616,0.03127695,
3784.134,0.03111183,
3783.652,0.03097663,
3783.170,0.03088087,
3782.688,0.030823,
3782.206,0.03079692,
3781.723,0.03079798,
3781.241,0.03082649,
3780.759,0.03088687,
3780.277,0.03098254,
3779.795,0.03110817,
3779.313,0.03124405,
3778.831,0.03135776,
3778.349,0.03141648,
3777.867,0.03140682,
3777.384,0.03133744,
3776.902,0.03122994,
3776.420,0.03110427,
3775.938,0.03097221,
3775.456,0.03083435,
3774.974,0.03068354,
3774.492,0.03051135,
3774.010,0.03031428,
3773.527,0.03009841,
3773.045,0.02988013,
3772.563,0.02968474,
3772.081,0.0295379,
3771.599,0.02946508,
3771.117,0.02948329,
3770.635,0.02959588,
3770.153,0.0297852,
3769.671,0.03001209,
3769.188,0.03022926,
3768.706,0.03039881,
3768.224,0.03051258,
3767.742,0.03058768,
3767.260,0.0306545,
3766.778,0.03073996,
3766.296,0.03086025,
3765.814,0.03101569,
3765.331,0.03118748,
3764.849,0.03134045,
3764.367,0.0314325,
3763.885,0.03143615,
3763.403,0.03134399,
3762.921,0.03116697,
3762.439,0.03092336,
3761.957,0.03063422,
3761.475,0.03032312,
3760.992,0.03001439,
3760.510,0.02973773,
3760.028,0.02952474,
3759.546,0.0294005,
3759.064,0.02937584,
3758.582,0.02944522,
3758.100,0.02959372,
3757.618,0.02980142,
3757.135,0.03004788,
3756.653,0.03031116,
3756.171,0.03056266,
3755.689,0.03076986,
3755.207,0.03090171,
3754.725,0.0309289,
3754.243,0.03083139,
3753.761,0.0305992,
3753.279,0.03024067,
3752.796,0.02978676,
3752.314,0.02929346,
3751.832,0.02885037,
3751.350,0.02855632,
3750.868,0.0284838,
3750.386,0.02863214,
3749.904,0.02892374,
3749.422,0.02925076,
3748.940,0.02953787,
3748.457,0.02977097,
3747.975,0.0299711,
3747.493,0.03016748,
3747.011,0.0303803,
3746.529,0.03062328,
3746.047,0.03090766,
3745.565,0.03124219,
3745.083,0.03162449,
3744.600,0.03202039,
3744.118,0.03235883,
3743.636,0.03255745,
3743.154,0.03258343,
3742.672,0.03246951,
3742.190,0.03227556,
3741.708,0.03205631,
3741.226,0.03185068,
3740.744,0.031695,
3740.261,0.03162258,
3739.779,0.0316588,
3739.297,0.03181782,
3738.815,0.03209127,
3738.333,0.03244995,
3737.851,0.03283858,
3737.369,0.03318658,
3736.887,0.03341562,
3736.404,0.03344996,
3735.922,0.03325076,
3735.440,0.03285434,
3734.958,0.03239081,
3734.476,0.03201508,
3733.994,0.03181129,
3733.512,0.03175379,
3733.030,0.03174973,
3732.548,0.03170279,
3732.065,0.03155495,
3731.583,0.03130804,
3731.101,0.03100645,
3730.619,0.03070816,
3730.137,0.03045217,
3729.655,0.0302499,
3729.173,0.03008638,
3728.691,0.0299341,
3728.208,0.02976679,
3727.726,0.02957397,
3727.244,0.02936993,
3726.762,0.0292037,
3726.280,0.0291501,
3725.798,0.02928047,
3725.316,0.02963082,
3724.834,0.03017614,
3724.352,0.03084247,
3723.869,0.03152455,
3723.387,0.03211777,
3722.905,0.03254028,
3722.423,0.03274321,
3721.941,0.03272848,
3721.459,0.03254493,
3720.977,0.03227403,
3720.495,0.03199473,
3720.013,0.03175928,
3719.530,0.03158643,
3719.048,0.03146277,
3718.566,0.03135712,
3718.084,0.03123336,
3717.602,0.03106648,
3717.120,0.03084787,
3716.638,0.03058516,
3716.156,0.03029499,
3715.673,0.02999497,
3715.191,0.02969839,
3714.709,0.02940793,
3714.227,0.02912018,
3713.745,0.02882727,
3713.263,0.0285214,
3712.781,0.02820406,
3712.299,0.02789502,
3711.817,0.02763751,
3711.334,0.02749317,
3710.852,0.02751481,
3710.370,0.02771109,
3709.888,0.02803571,
3709.406,0.0284145,
3708.924,0.02878736,
3708.442,0.02912409,
3707.960,0.02942389,
3707.477,0.02970032,
3706.995,0.0299712,
3706.513,0.03024943,
3706.031,0.03054012,
3705.549,0.03083912,
3705.067,0.0311353,
3704.585,0.0314124,
3704.103,0.03164834,
3703.621,0.03181851,
3703.138,0.03189649,
3702.656,0.03185799,
3702.174,0.03169138,
3701.692,0.03140971,
3701.210,0.03106057,
3700.728,0.03071121,
3700.246,0.03042674,
3699.764,0.03024486,
3699.281,0.03016776,
3698.799,0.03017231,
3698.317,0.03022696,
3697.835,0.03030344,
3697.353,0.03038438,
3696.871,0.03046662,
3696.389,0.03055851,
3695.907,0.03067396,
3695.425,0.03082254,
3694.942,0.0310015,
3694.460,0.03119286,
3693.978,0.03136725,
3693.496,0.03149336,
3693.014,0.03154045,
3692.532,0.03148728,
3692.050,0.03132428,
3691.568,0.03105919,
3691.086,0.03071645,
3690.603,0.03033636,
3690.121,0.02997597,
3689.639,0.02969895,
3689.157,0.02956318,
3688.675,0.02960212,
3688.193,0.02980662,
3687.711,0.03012807,
3687.229,0.03050341,
3686.746,0.03088201,
3686.264,0.03123289,
3685.782,0.03153925,
3685.300,0.03179255,
3684.818,0.03198591,
3684.336,0.03211119,
3683.854,0.03216003,
3683.372,0.03212338,
3682.890,0.03199592,
3682.407,0.03177815,
3681.925,0.03148129,
3681.443,0.03113128,
3680.961,0.03076672,
3680.479,0.03044424,
3679.997,0.03022818,
3679.515,0.03017064,
3679.033,0.0302929,
3678.550,0.03056611,
3678.068,0.03092122,
3677.586,0.03125668,
3677.104,0.03146692,
3676.622,0.03146172,
3676.140,0.03119116,
3675.658,0.03069823,
3675.176,0.03015704,
3674.694,0.02980774,
3674.211,0.02976161,
3673.729,0.02994555,
3673.247,0.03021474,
3672.765,0.03046261,
3672.283,0.03063595,
3671.801,0.03071982,
3671.319,0.03072998,
3670.837,0.03070918,
3670.354,0.03072691,
3669.872,0.03085158,
3669.390,0.0311047,
3668.908,0.03142585,
3668.426,0.03171356,
3667.944,0.03188892,
3667.462,0.03192519,
3666.980,0.03183518,
3666.498,0.03164754,
3666.015,0.03139825,
3665.533,0.03112467,
3665.051,0.03086882,
3664.569,0.030671,
3664.087,0.03056032,
3663.605,0.03055132,
3663.123,0.03063477,
3662.641,0.03078058,
3662.159,0.03094097,
3661.676,0.03106625,
3661.194,0.03112,
3660.712,0.03108602,
3660.230,0.03097419,
3659.748,0.03081361,
3659.266,0.03064319,
3658.784,0.03049596,
3658.302,0.03039038,
3657.819,0.03032819,
3657.337,0.03029582,
3656.855,0.03026996,
3656.373,0.03022717,
3655.891,0.03015793,
3655.409,0.03007378,
3654.927,0.03000548,
3654.445,0.02998542,
3653.963,0.03003666,
3653.480,0.03017035,
3652.998,0.03039013,
3652.516,0.03069964,
3652.034,0.03110278,
3651.552,0.03160512,
3651.070,0.03219745,
3650.588,0.03283831,
3650.106,0.0334383,
3649.623,0.03385551,
3649.141,0.03395144,
3648.659,0.03367676,
3648.177,0.03312251,
3647.695,0.03246228,
3647.213,0.03184883,
3646.731,0.03136466,
3646.249,0.03102279,
3645.767,0.03080181,
3645.284,0.03067301,
3644.802,0.03061048,
3644.320,0.03059225,
3643.838,0.03059844,
3643.356,0.03060916,
3642.874,0.03060529,
3642.392,0.03057122,
3641.910,0.03050284,
3641.427,0.03041108,
3640.945,0.03032376,
3640.463,0.03027441,
3639.981,0.03029269,
3639.499,0.03039215,
3639.017,0.03056199,
3638.535,0.03076692,
3638.053,0.03095184,
3637.571,0.03106105,
3637.088,0.03105089,
3636.606,0.03090411,
3636.124,0.03063224,
3635.642,0.0302708,
3635.160,0.02987096,
3634.678,0.02948638,
3634.196,0.02917366,
3633.714,0.02897897,
3633.232,0.02892715,
3632.749,0.02901572,
3632.267,0.02921779,
3631.785,0.0294964,
3631.303,0.02980955,
3630.821,0.03011773,
3630.339,0.03038239,
3629.857,0.03055443,
3629.375,0.03058221,
3628.892,0.03043684,
3628.410,0.03016445,
3627.928,0.02989588,
3627.446,0.0297646,
3626.964,0.02982543,
3626.482,0.03004854,
3626.000,0.03036916,
3625.518,0.03072028,
3625.036,0.03104812,
3624.553,0.03131225,
3624.071,0.03148628,
3623.589,0.03156197,
3623.107,0.03154488,
3622.625,0.0314541,
3622.143,0.0313168,
3621.661,0.03116847,
3621.179,0.03105163,
3620.696,0.03100895,
3620.214,0.03107795,
3619.732,0.03127269,
3619.250,0.03156628,
3618.768,0.03187978,
3618.286,0.03211004,
3617.804,0.03218441,
3617.322,0.03208854,
3616.840,0.03186521,
3616.357,0.03157798,
3615.875,0.03128743,
3615.393,0.03103546,
3614.911,0.03084317,
3614.429,0.03071909,
3613.947,0.03066074,
3613.465,0.03065819,
3612.983,0.03069522,
3612.500,0.03075338,
3612.018,0.03081528,
3611.536,0.03086488,
3611.054,0.03088901,
3610.572,0.03087601,
3610.090,0.03081611,
3609.608,0.03070711,
3609.126,0.03055996,
3608.644,0.03040366,
3608.161,0.0302777,
3607.679,0.03021863,
3607.197,0.03023779,
3606.715,0.03031429,
3606.233,0.0304058,
3605.751,0.03047148,
3605.269,0.03049034,
3604.787,0.03046517,
3604.305,0.03041727,
3603.822,0.03037722,
3603.340,0.03037732,
3602.858,0.03044093,
3602.376,0.03057521,
3601.894,0.03076789,
3601.412,0.03098761,
3600.930,0.03119309,
3600.448,0.03134314,
3599.965,0.03141247,
3599.483,0.03140042,
3599.001,0.03132973,
3598.519,0.03123652,
3598.037,0.03115783,
3597.555,0.03112803,
3597.073,0.03117307,
3596.591,0.03130947,
3596.109,0.03154419,
3595.626,0.03186949,
3595.144,0.03225887,
3594.662,0.03266335,
3594.180,0.03302255,
3593.698,0.03327893,
3593.216,0.03339599,
3592.734,0.033371,
3592.252,0.03322889,
3591.769,0.03300912,
3591.287,0.03274857,
3590.805,0.03247667,
3590.323,0.03221394,
3589.841,0.03197245,
3589.359,0.0317628,
3588.877,0.03159504,
3588.395,0.03147529,
3587.913,0.03139757,
3587.430,0.03133334,
3586.948,0.03123797,
3586.466,0.03107369,
3585.984,0.03084455,
3585.502,0.03059926,
3585.020,0.03040797,
3584.538,0.03033161,
3584.056,0.03040125,
3583.573,0.03061627,
3583.091,0.03093773,
3582.609,0.0312966,
3582.127,0.03159992,
3581.645,0.03176091,
3581.163,0.03172288,
3580.681,0.03147886,
3580.199,0.03108028,
3579.717,0.03062508,
3579.234,0.03023515,
3578.752,0.03000928,
3578.270,0.02999628,
3577.788,0.03017699,
3577.306,0.03047524,
3576.824,0.030781,
3576.342,0.03098425,
3575.860,0.03101458,
3575.378,0.03085351,
3574.895,0.03054279,
3574.413,0.03016383,
3573.931,0.02981879,
3573.449,0.02959481,
3572.967,0.02953792,
3572.485,0.02965024,
3572.003,0.02989723,
3571.521,0.0302295,
3571.038,0.03059837,
3570.556,0.03097425,
3570.074,0.03135548,
3569.592,0.03176428,
3569.110,0.03223877,
3568.628,0.03281422,
3568.146,0.03349752,
3567.664,0.03423606,
3567.182,0.03490442,
3566.699,0.03532644,
3566.217,0.03538081,
3565.735,0.03508917,
3565.253,0.0346089,
3564.771,0.03412006,
3564.289,0.03373955,
3563.807,0.03350179,
3563.325,0.03337651,
3562.842,0.03330466,
3562.360,0.03322583,
3561.878,0.03310402,
3561.396,0.03293638,
3560.914,0.03275584,
3560.432,0.03261372,
3559.950,0.03256159,
3559.468,0.03262458,
3558.986,0.03278814,
3558.503,0.03300078,
3558.021,0.03319123,
3557.539,0.03329881,
3557.057,0.03328516,
3556.575,0.03314958,
3556.093,0.03292347,
3555.611,0.03266401,
3555.129,0.03243753,
3554.646,0.03230157,
3554.164,0.03229981,
3553.682,0.03244827,
3553.200,0.03273316,
3552.718,0.03310678,
3552.236,0.03349628,
3551.754,0.03382459,
3551.272,0.03402883,
3550.790,0.03408749,
3550.307,0.03401902,
3549.825,0.03387066,
3549.343,0.03369417,
3548.861,0.0335292,
3548.379,0.03339432,
3547.897,0.03328168,
3547.415,0.03316085,
3546.933,0.0329901,
3546.451,0.03274098,
3545.968,0.03242026,
3545.486,0.03208464,
3545.004,0.03182315,
3544.522,0.03172736,
3544.040,0.03184951,
3543.558,0.03217801,
3543.076,0.0326453,
3542.594,0.03315342,
3542.111,0.03361556,
3541.629,0.03397028,
3541.147,0.03419543,
